freq,psd_x,psd_y,psd_z,psd_xyz
0.0,5.189e+02,5.005e+00,3.632e+01,5.602e+02
1.6,3.143e+02,2.121e+01,6.301e+01,3.985e+02
3.1,4.316e+01,2.414e+01,4.796e+01,1.153e+02
4.7,3.714e+02,2.297e+01,4.338e+01,4.377e+02
6.3,1.228e+03,2.711e+01,4.608e+01,1.302e+03
7.8,2.017e+03,2.620e+01,4.972e+01,2.093e+03
9.4,2.879e+03,2.581e+01,5.278e+01,2.957e+03
11.0,3.877e+03,2.728e+01,5.178e+01,3.956e+03
12.6,5.154e+03,2.981e+01,6.290e+01,5.246e+03
14.1,6.047e+03,2.877e+01,8.907e+01,6.164e+03
15.7,6.222e+03,2.959e+01,9.180e+01,6.343e+03
17.3,7.035e+03,2.937e+01,7.914e+01,7.143e+03
18.8,8.884e+03,2.791e+01,1.289e+02,9.041e+03
20.4,9.599e+03,3.128e+01,1.271e+02,9.757e+03
22.0,1.063e+04,3.379e+01,8.334e+01,1.075e+04
23.5,1.305e+04,3.373e+01,6.686e+01,1.315e+04
25.1,1.576e+04,3.449e+01,7.853e+01,1.588e+04
26.7,1.778e+04,3.777e+01,9.103e+01,1.791e+04
28.2,2.021e+04,4.937e+01,7.682e+01,2.034e+04
29.8,2.343e+04,5.326e+01,6.943e+01,2.355e+04
31.4,2.733e+04,6.187e+01,7.279e+01,2.747e+04
32.9,3.151e+04,8.071e+01,9.010e+01,3.168e+04
34.5,3.695e+04,9.628e+01,1.500e+02,3.719e+04
36.1,4.371e+04,1.289e+02,4.421e+02,4.428e+04
37.7,5.302e+04,2.060e+02,1.619e+03,5.485e+04
39.2,6.274e+04,3.336e+02,4.914e+03,6.799e+04
40.8,7.176e+04,4.570e+02,1.016e+04,8.237e+04
42.4,8.179e+04,5.377e+02,1.445e+04,9.677e+04
43.9,8.851e+04,5.879e+02,2.024e+04,1.093e+05
45.5,9.552e+04,5.098e+02,2.107e+04,1.171e+05
47.1,1.101e+05,4.468e+02,1.907e+04,1.297e+05
48.6,1.164e+05,5.812e+02,2.919e+04,1.462e+05
50.2,1.132e+05,6.463e+02,3.990e+04,1.537e+05
51.8,1.239e+05,6.304e+02,4.522e+04,1.698e+05
53.3,1.556e+05,5.431e+02,4.276e+04,1.989e+05
54.9,1.942e+05,4.884e+02,4.292e+04,2.376e+05
56.5,2.389e+05,3.951e+02,4.445e+04,2.838e+05
58.0,2.994e+05,2.712e+02,4.496e+04,3.447e+05
59.6,3.872e+05,2.285e+02,4.870e+04,4.362e+05
61.2,4.213e+05,2.566e+02,4.343e+04,4.650e+05
62.8,5.288e+05,4.716e+02,4.605e+04,5.753e+05
64.3,7.367e+05,9.757e+02,6.162e+04,7.993e+05
65.9,1.003e+06,1.738e+03,7.757e+04,1.082e+06
67.5,1.275e+06,2.510e+03,7.917e+04,1.356e+06
69.0,1.551e+06,2.982e+03,6.187e+04,1.616e+06
70.6,1.745e+06,3.437e+03,4.181e+04,1.791e+06
72.2,1.648e+06,3.620e+03,3.324e+04,1.685e+06
73.7,1.467e+06,2.987e+03,2.589e+04,1.496e+06
75.3,1.372e+06,2.557e+03,2.159e+04,1.397e+06
76.9,1.232e+06,2.378e+03,1.937e+04,1.254e+06
78.4,1.146e+06,2.259e+03,1.559e+04,1.164e+06
80.0,1.096e+06,2.300e+03,1.171e+04,1.110e+06
81.6,9.932e+05,2.264e+03,9.014e+03,1.005e+06
83.2,8.059e+05,2.032e+03,7.876e+03,8.159e+05
84.7,7.225e+05,1.972e+03,6.101e+03,7.306e+05
86.3,6.808e+05,1.938e+03,4.257e+03,6.870e+05
87.9,6.520e+05,1.813e+03,2.534e+03,6.563e+05
89.4,6.424e+05,1.679e+03,1.837e+03,6.459e+05
91.0,6.324e+05,1.541e+03,1.712e+03,6.357e+05
92.6,6.280e+05,1.317e+03,1.966e+03,6.313e+05
94.1,6.203e+05,9.828e+02,2.445e+03,6.238e+05
95.7,5.898e+05,7.375e+02,2.906e+03,5.934e+05
97.3,5.545e+05,6.188e+02,3.463e+03,5.586e+05
98.8,5.263e+05,5.177e+02,4.257e+03,5.311e+05
100.4,5.060e+05,4.598e+02,5.521e+03,5.120e+05
102.0,4.922e+05,4.224e+02,7.120e+03,4.997e+05
103.5,4.792e+05,4.219e+02,8.478e+03,4.881e+05
105.1,4.353e+05,4.719e+02,8.135e+03,4.439e+05
106.7,4.365e+05,4.874e+02,8.391e+03,4.454e+05
108.3,4.753e+05,4.118e+02,8.993e+03,4.847e+05
109.8,5.086e+05,3.401e+02,8.843e+03,5.178e+05
111.4,5.348e+05,3.488e+02,8.882e+03,5.441e+05
113.0,5.635e+05,4.531e+02,9.446e+03,5.734e+05
114.5,5.936e+05,6.888e+02,1.051e+04,6.048e+05
116.1,6.264e+05,1.007e+03,1.116e+04,6.386e+05
117.7,6.599e+05,1.454e+03,1.132e+04,6.727e+05
119.2,6.889e+05,1.967e+03,1.249e+04,7.034e+05
120.8,7.203e+05,2.653e+03,1.569e+04,7.387e+05
122.4,7.525e+05,3.227e+03,1.790e+04,7.736e+05
123.9,7.723e+05,3.437e+03,1.867e+04,7.944e+05
125.5,8.101e+05,4.368e+03,2.039e+04,8.349e+05
127.1,8.328e+05,5.570e+03,2.110e+04,8.595e+05
128.7,8.419e+05,6.611e+03,2.063e+04,8.692e+05
130.2,8.195e+05,7.533e+03,2.021e+04,8.472e+05
131.8,6.985e+05,7.365e+03,1.844e+04,7.243e+05
133.4,2.887e+05,3.094e+03,7.714e+03,2.995e+05
134.9,8.146e+04,7.422e+02,1.814e+03,8.402e+04
136.5,8.218e+04,6.165e+02,1.253e+03,8.405e+04
138.1,8.764e+04,5.280e+02,9.112e+02,8.908e+04
139.6,9.026e+04,4.742e+02,9.199e+02,9.165e+04
141.2,7.976e+04,3.786e+02,1.257e+03,8.139e+04
142.8,6.156e+04,3.170e+02,1.442e+03,6.332e+04
144.3,5.787e+04,3.695e+02,1.344e+03,5.958e+04
145.9,4.755e+04,3.658e+02,1.321e+03,4.924e+04
147.5,4.559e+04,3.960e+02,1.287e+03,4.727e+04
149.0,3.931e+04,4.079e+02,1.395e+03,4.111e+04
150.6,3.260e+04,4.222e+02,1.418e+03,3.444e+04
152.2,2.866e+04,4.797e+02,1.507e+03,3.065e+04
153.8,2.679e+04,5.187e+02,1.612e+03,2.892e+04
155.3,2.529e+04,5.488e+02,1.766e+03,2.760e+04
156.9,2.396e+04,5.824e+02,1.839e+03,2.638e+04
158.5,2.238e+04,5.389e+02,1.590e+03,2.451e+04
160.0,2.104e+04,4.526e+02,1.027e+03,2.252e+04
161.6,1.908e+04,4.315e+02,7.722e+02,2.029e+04
163.2,1.753e+04,4.025e+02,6.082e+02,1.854e+04
164.7,1.414e+04,3.186e+02,4.849e+02,1.494e+04
166.3,1.229e+04,3.235e+02,4.152e+02,1.303e+04
167.9,1.201e+04,3.424e+02,4.034e+02,1.276e+04
169.4,1.140e+04,3.672e+02,4.031e+02,1.217e+04
171.0,1.056e+04,4.288e+02,4.287e+02,1.142e+04
172.6,9.869e+03,5.103e+02,4.910e+02,1.087e+04
174.1,9.311e+03,5.997e+02,5.011e+02,1.041e+04
175.7,8.985e+03,6.400e+02,4.919e+02,1.012e+04
177.3,8.771e+03,6.462e+02,5.048e+02,9.922e+03
178.9,8.779e+03,6.176e+02,5.139e+02,9.911e+03
180.4,8.990e+03,5.822e+02,5.136e+02,1.009e+04
182.0,8.898e+03,5.437e+02,4.530e+02,9.895e+03
183.6,8.730e+03,5.343e+02,4.235e+02,9.688e+03
185.1,8.872e+03,5.537e+02,5.390e+02,9.965e+03
186.7,9.302e+03,5.293e+02,6.528e+02,1.048e+04
188.3,9.482e+03,5.359e+02,7.034e+02,1.072e+04
189.8,9.323e+03,6.064e+02,6.593e+02,1.059e+04
191.4,9.172e+03,7.250e+02,5.928e+02,1.049e+04
193.0,9.125e+03,9.522e+02,5.768e+02,1.065e+04
194.5,8.884e+03,1.199e+03,5.956e+02,1.068e+04
196.1,8.953e+03,1.244e+03,6.882e+02,1.089e+04
197.7,9.224e+03,1.261e+03,8.191e+02,1.130e+04
199.3,9.464e+03,1.318e+03,9.460e+02,1.173e+04
